ch1+ 	 ch1- 	ch2+ 	 ch2- 	ch5+ 	 Temperature 
+2.21460156E-04 	 -2.16838157E-04 	-3.21283577E-06 	 -3.23033226E-06 	+1.68078996E+00 	 2.588006 
+2.21715737E-04 	 -2.17093125E-04 	-4.48465640E-06 	 -4.62613693E-06 	+1.67467458E+00 	 2.809035 
+2.22373432E-04 	 -2.17791746E-04 	-4.42341616E-06 	 -4.53714348E-06 	+1.66759484E+00 	 3.047321 
+2.23253929E-04 	 -2.18748090E-04 	-4.22391519E-06 	 -4.34518408E-06 	+1.66095490E+00 	 3.260774 
+2.24535875E-04 	 -2.20064390E-04 	-3.94829554E-06 	 -4.00229339E-06 	+1.65159080E+00 	 3.551972 
+2.25514058E-04 	 -2.21066196E-04 	-3.75483106E-06 	 -3.82803491E-06 	+1.64433824E+00 	 3.771567 
+2.26575240E-04 	 -2.22132298E-04 	-3.68907001E-06 	 -3.77906656E-06 	+1.63671455E+00 	 3.997031 
+2.27840602E-04 	 -2.23466640E-04 	-3.44743523E-06 	 -3.43546922E-06 	+1.62845749E+00 	 4.234603 
+2.29305001E-04 	 -2.24945616E-04 	-3.16276376E-06 	 -3.18217082E-06 	+1.61943366E+00 	 4.485962 
+2.30843826E-04 	 -2.26596455E-04 	-3.07105709E-06 	 -3.06693435E-06 	+1.60990305E+00 	 4.742309 
+2.32602881E-04 	 -2.28370394E-04 	-2.90323085E-06 	 -2.88342159E-06 	+1.60022692E+00 	 4.994211 
+2.34290120E-04 	 -2.30055308E-04 	-2.72715964E-06 	 -2.76154933E-06 	+1.59076967E+00 	 5.234221 
+2.36066890E-04 	 -2.31785616E-04 	-2.57270904E-06 	 -2.60176935E-06 	+1.58165450E+00 	 5.461835 
+2.37773655E-04 	 -2.33509768E-04 	-2.44188716E-06 	 -2.41443646E-06 	+1.57290804E+00 	 5.678603 
+2.39338399E-04 	 -2.35094515E-04 	-2.25415231E-06 	 -2.41333049E-06 	+1.56465877E+00 	 5.882854 
+2.41545517E-04 	 -2.37229328E-04 	-2.14766437E-06 	 -2.17491470E-06 	+1.55347258E+00 	 6.161023 
+2.43491332E-04 	 -2.39166592E-04 	-2.05052744E-06 	 -2.09527427E-06 	+1.54307547E+00 	 6.421704 
+2.45180122E-04 	 -2.40881320E-04 	-1.95872109E-06 	 -1.98013924E-06 	+1.53342615E+00 	 6.665733 
+2.46676578E-04 	 -2.42399856E-04 	-1.88662491E-06 	 -1.88612214E-06 	+1.52458739E+00 	 6.890993 
+2.48002036E-04 	 -2.43701816E-04 	-1.76304193E-06 	 -1.74765706E-06 	+1.51624943E+00 	 7.104956 
+2.49409177E-04 	 -2.45183160E-04 	-1.68893349E-06 	 -1.74403747E-06 	+1.50846337E+00 	 7.306106 
+2.51477769E-04 	 -2.47340740E-04 	-1.60698039E-06 	 -1.67043035E-06 	+1.49880887E+00 	 7.557689 
+2.54929471E-04 	 -2.50787706E-04 	-1.42045141E-06 	 -1.45534385E-06 	+1.47954344E+00 	 8.070557 
+2.56196841E-04 	 -2.52105745E-04 	-1.42266462E-06 	 -1.49244958E-06 	+1.47182303E+00 	 8.282195 
+2.57501920E-04 	 -2.53393929E-04 	-1.31185293E-06 	 -1.34714795E-06 	+1.46450440E+00 	 8.487285 
+2.58911246E-04 	 -2.54854132E-04 	-1.18344449E-06 	 -1.24196729E-06 	+1.45736394E+00 	 8.692342 
+2.61465119E-04 	 -2.57475970E-04 	-1.17540033E-06 	 -1.17348979E-06 	+1.44917176E+00 	 8.934500 
+2.64140880E-04 	 -2.60157249E-04 	-1.09706869E-06 	 -1.11637520E-06 	+1.44137538E+00 	 9.172512 
+2.66132660E-04 	 -2.62136361E-04 	-9.52470247E-07 	 -9.76100574E-07 	+1.43387135E+00 	 9.408994 
+2.68216408E-04 	 -2.64189125E-04 	-9.04405544E-07 	 -8.74038032E-07 	+1.42663933E+00 	 9.643930 
+2.70571998E-04 	 -2.66670447E-04 	-8.53926728E-07 	 -9.24013267E-07 	+1.41966797E+00 	 9.876882 
+2.73694830E-04 	 -2.69688548E-04 	-8.18431033E-07 	 -8.43268018E-07 	+1.41303757E+00 	 10.104169 
+2.77410758E-04 	 -2.73501422E-04 	-7.55986475E-07 	 -7.56589802E-07 	+1.40680626E+00 	 10.322652 
+2.82251651E-04 	 -2.78347743E-04 	-7.02290581E-07 	 -7.49953483E-07 	+1.40095030E+00 	 10.532094 
+2.87880793E-04 	 -2.84039311E-04 	-6.61465194E-07 	 -7.27831183E-07 	+1.39543063E+00 	 10.733038 
+2.95865493E-04 	 -2.92023542E-04 	-4.89114734E-07 	 -4.97460768E-07 	+1.38913371E+00 	 10.966407 
+3.04049611E-04 	 -3.00102961E-04 	-4.36524549E-07 	 -4.36524549E-07 	+1.38311775E+00 	 11.193559 
+3.11634752E-04 	 -3.07683968E-04 	-3.22495235E-07 	 -4.45574459E-07 	+1.37730717E+00 	 11.417101 
+3.18271797E-04 	 -3.14418709E-04 	-2.41447813E-07 	 -1.98913054E-07 	+1.37167249E+00 	 11.638171 
+3.23841567E-04 	 -3.19848791E-04 	-1.54668933E-07 	 -1.92276490E-07 	+1.36617569E+00 	 11.858436 
+3.27412869E-04 	 -3.23462313E-04 	-1.10122978E-07 	 -1.52154965E-07 	+1.36078240E+00 	 12.083554 
+3.30292038E-04 	 -3.26275207E-04 	-1.02581380E-07 	 -1.12937931E-07 	+1.35548668E+00 	 12.314147 
+3.32721821E-04 	 -3.28782817E-04 	-1.16357891E-07 	 -7.98564789E-08 	+1.35028579E+00 	 12.541431 
+3.34953665E-04 	 -3.30968193E-04 	-9.26265565E-08 	 -1.35060747E-07 	+1.34515786E+00 	 12.766428 
+3.36988828E-04 	 -3.33023562E-04 	-6.87951174E-08 	 -1.16055743E-07 	+1.34008359E+00 	 12.990794 
+3.38749858E-04 	 -3.34827815E-04 	-3.02817504E-08 	 -4.43594666E-08 	+1.33506346E+00 	 13.215585 
+3.40393908E-04 	 -3.36460199E-04 	-1.50982421E-08 	 -7.24146199E-08 	+1.33006537E+00 	 13.443297 
+3.41899449E-04 	 -3.37959406E-04 	+4.26196852E-08 	 -5.13991663E-08 	+1.32506949E+00 	 13.675709 
+3.43278483E-04 	 -3.39355629E-04 	-5.38123766E-08 	 -8.15655418E-08 	+1.32005658E+00 	 13.914313 
+3.44354881E-04 	 -3.40385163E-04 	-9.71513791E-08 	 -1.39384476E-07 	+1.31583884E+00 	 14.119416 
+3.45266385E-04 	 -3.41293446E-04 	-1.19273507E-07 	 -1.65428245E-07 	+1.31157617E+00 	 14.330662 
+3.46193261E-04 	 -3.42167126E-04 	-1.12435811E-07 	 -1.33854020E-07 	+1.30725411E+00 	 14.548671 
+3.47042958E-04 	 -3.42938288E-04 	-7.07056084E-08 	 -1.22189741E-07 	+1.30286122E+00 	 14.773819 
+3.47790815E-04 	 -3.43704240E-04 	-9.93636231E-08 	 -9.83580733E-08 	+1.29839099E+00 	 15.006156 
+3.48474548E-04 	 -3.44403361E-04 	-1.39988177E-07 	 -1.50546440E-07 	+1.29383917E+00 	 15.245576 
+3.49183502E-04 	 -3.45027442E-04 	-1.65327784E-07 	 -2.00522018E-07 	+1.28920644E+00 	 15.491715 
+3.49671562E-04 	 -3.45576536E-04 	-2.05248129E-07 	 -2.39537375E-07 	+1.28544582E+00 	 15.693076 
+3.50227225E-04 	 -3.46070857E-04 	-1.95494135E-07 	 -2.21738990E-07 	+1.28162981E+00 	 15.898665 
+3.50737427E-04 	 -3.46643402E-04 	-1.95192565E-07 	 -2.19929088E-07 	+1.27776621E+00 	 16.108033 
+3.51234730E-04 	 -3.47196408E-04 	-2.28476069E-07 	 -2.60050437E-07 	+1.27385477E+00 	 16.321228 
+3.51794326E-04 	 -3.47662762E-04 	-1.41798140E-07 	 -2.23750377E-07 	+1.26990262E+00 	 16.537958 
+3.52273436E-04 	 -3.48136669E-04 	-9.05146932E-08 	 -2.70608711E-07 	+1.26591155E+00 	 16.758279 
+3.52683963E-04 	 -3.48629651E-04 	+9.71207188E-08 	 -5.56285226E-07 	+1.26188389E+00 	 16.982254 
+3.53092629E-04 	 -3.48963903E-04 	+3.75681969E-06 	 -4.30586761E-06 	+1.25782682E+00 	 17.209689 
+3.53391584E-04 	 -3.49318268E-04 	+4.24863062E-06 	 -4.73905388E-06 	+1.25373985E+00 	 17.440802 
+3.53622848E-04 	 -3.49516242E-04 	+4.65759312E-06 	 -5.12820520E-06 	+1.24962448E+00 	 17.675652 
+3.53747590E-04 	 -3.49718711E-04 	+5.03417252E-06 	 -5.55777573E-06 	+1.24548976E+00 	 17.913782 
+3.53880736E-04 	 -3.49754318E-04 	+5.28043200E-06 	 -5.88377409E-06 	+1.24133150E+00 	 18.155383 
+3.53807675E-04 	 -3.49806851E-04 	+5.53302529E-06 	 -6.16291303E-06 	+1.23715647E+00 	 18.399883 
+3.53763939E-04 	 -3.49769952E-04 	+5.80603407E-06 	 -6.30359078E-06 	+1.23296453E+00 	 18.646968 
+3.53644114E-04 	 -3.49637271E-04 	+6.01790266E-06 	 -6.46960578E-06 	+1.22875451E+00 	 18.896240 
+3.53475932E-04 	 -3.49484158E-04 	+6.20372899E-06 	 -6.60887460E-06 	+1.22452946E+00 	 19.146922 
+3.53273487E-04 	 -3.49228418E-04 	+6.35838407E-06 	 -6.75347357E-06 	+1.22028232E+00 	 19.398720 
+3.52978545E-04 	 -3.48951688E-04 	+6.52358388E-06 	 -6.82918027E-06 	+1.21601105E+00 	 19.650956 
+3.52728507E-04 	 -3.48668360E-04 	+6.74119371E-06 	 -6.85392465E-06 	+1.21171271E+00 	 19.902952 
+3.52324696E-04 	 -3.48254091E-04 	+6.88690042E-06 	 -6.97931852E-06 	+1.20737533E+00 	 20.154532 
+3.51986402E-04 	 -3.47831937E-04 	+6.98252557E-06 	 -7.01611918E-06 	+1.20299461E+00 	 20.405077 
+3.51599782E-04 	 -3.47356225E-04 	+7.10802213E-06 	 -7.09023136E-06 	+1.19855647E+00 	 20.654566 
+3.51102358E-04 	 -3.46968911E-04 	+7.15678820E-06 	 -7.17278405E-06 	+1.19404309E+00 	 20.903221 
+3.50649619E-04 	 -3.46510945E-04 	+7.43653138E-06 	 -7.26881301E-06 	+1.18943651E+00 	 21.151313 
+3.50184906E-04 	 -3.46046741E-04 	+7.54975064E-06 	 -7.26197339E-06 	+1.18471052E+00 	 21.399592 
+3.49735596E-04 	 -3.45597892E-04 	+7.65252554E-06 	 -7.26871410E-06 	+1.17983196E+00 	 21.649166 
+3.49277819E-04 	 -3.45086561E-04 	+7.70400707E-06 	 -7.30732490E-06 	+1.17477312E+00 	 21.900855 
+3.48800164E-04 	 -3.44585978E-04 	+7.83835293E-06 	 -7.28329589E-06 	+1.16952311E+00 	 22.154728 
+3.48284619E-04 	 -3.44131977E-04 	+7.83824694E-06 	 -7.34342314E-06 	+1.16411670E+00 	 22.409054 
+3.47837205E-04 	 -3.43632280E-04 	+7.89706636E-06 	 -7.37087024E-06 	+1.15862852E+00 	 22.661314 
+3.47342765E-04 	 -3.43125669E-04 	+7.96364322E-06 	 -7.34211934E-06 	+1.15317747E+00 	 22.909111 
+3.46832024E-04 	 -3.42638968E-04 	+8.05031248E-06 	 -7.37157445E-06 	+1.14796535E+00 	 23.149490 
+3.46334882E-04 	 -3.42189891E-04 	+8.05464010E-06 	 -7.36333200E-06 	+1.14316941E+00 	 23.383292 
+3.45839464E-04 	 -3.41688037E-04 	+8.12281928E-06 	 -7.34352504E-06 	+1.13887288E+00 	 23.615926 
+3.45371310E-04 	 -3.41176344E-04 	+8.18466138E-06 	 -7.35237446E-06 	+1.13509887E+00 	 23.853064 
+3.44883961E-04 	 -3.40734090E-04 	+8.20386446E-06 	 -7.37318695E-06 	+1.13184146E+00 	 24.097019 
+3.44369133E-04 	 -3.40323591E-04 	+8.17742785E-06 	 -7.43935942E-06 	+1.12908631E+00 	 24.344520 
+3.43944520E-04 	 -3.39852124E-04 	+8.17852713E-06 	 -7.45524159E-06 	+1.12678695E+00 	 24.565627 
+3.43458745E-04 	 -3.39369267E-04 	+8.17993560E-06 	 -7.49848067E-06 	+1.12486608E+00 	 24.805284 
+3.42999614E-04 	 -3.38958907E-04 	+8.18375626E-06 	 -7.51688182E-06 	+1.12323638E+00 	 25.046640 
+3.42610450E-04 	 -3.38520976E-04 	+8.23624300E-06 	 -7.47535035E-06 	+1.12182942E+00 	 25.286496 
+3.42197488E-04 	 -3.38043058E-04 	+8.23222126E-06 	 -7.48369790E-06 	+1.12059146E+00 	 25.523484 
+3.41727702E-04 	 -3.37660189E-04 	+8.29366411E-06 	 -7.52643549E-06 	+1.11948436E+00 	 25.756973 
+3.41342277E-04 	 -3.37205046E-04 	+8.28842915E-06 	 -7.50913520E-06 	+1.11848105E+00 	 25.986685 
+3.40812818E-04 	 -3.36796555E-04 	+8.24297994E-06 	 -7.57580425E-06 	+1.11755998E+00 	 26.213016 
+3.40434232E-04 	 -3.36341247E-04 	+8.29426457E-06 	 -7.52874594E-06 	+1.11670412E+00 	 26.436721 
+3.40105241E-04 	 -3.35901547E-04 	+8.40889378E-06 	 -7.44799781E-06 	+1.11590459E+00 	 26.657417 
+3.39669079E-04 	 -3.35497263E-04 	+8.39270298E-06 	 -7.48731353E-06 	+1.11514928E+00 	 26.876306 
+3.39304342E-04 	 -3.35118950E-04 	+8.44056831E-06 	 -7.46690186E-06 	+1.11443285E+00 	 27.093232 
+3.38946869E-04 	 -3.34704566E-04 	+8.46430011E-06 	 -7.47203079E-06 	+1.11374820E+00 	 27.308950 
+3.38575098E-04 	 -3.34291866E-04 	+8.55641600E-06 	 -7.44166909E-06 	+1.11309370E+00 	 27.522790 
+3.38146279E-04 	 -3.33941687E-04 	+8.52925672E-06 	 -7.43371801E-06 	+1.11246222E+00 	 27.736099 
+3.37749544E-04 	 -3.33539041E-04 	+8.51326779E-06 	 -7.43361692E-06 	+1.11185395E+00 	 27.947980 
+3.37406935E-04 	 -3.33183636E-04 	+8.52333568E-06 	 -7.39601900E-06 	+1.11126579E+00 	 28.158757 
+3.37007865E-04 	 -3.32801559E-04 	+8.54314861E-06 	 -7.37158693E-06 	+1.11069564E+00 	 28.368538 
+3.36646205E-04 	 -3.32437285E-04 	+8.55752308E-06 	 -7.38425308E-06 	+1.11014151E+00 	 28.577490 
+3.36269131E-04 	 -3.32088577E-04 	+8.53328193E-06 	 -7.41069332E-06 	+1.10960486E+00 	 28.784531 
+3.35867509E-04 	 -3.31708573E-04 	+8.50372400E-06 	 -7.43362382E-06 	+1.10908028E+00 	 28.991286 
+3.35445873E-04 	 -3.31420175E-04 	+8.49497279E-06 	 -7.46067328E-06 	+1.10856845E+00 	 29.197104 
+3.35132068E-04 	 -3.31020096E-04 	+8.51256795E-06 	 -7.42426846E-06 	+1.10806930E+00 	 29.401636 
+3.34709961E-04 	 -3.30714730E-04 	+8.51126673E-06 	 -7.45202619E-06 	+1.10758142E+00 	 29.605117 
+3.34407515E-04 	 -3.30393081E-04 	+8.56526272E-06 	 -7.37942410E-06 	+1.10710425E+00 	 29.807470 
+3.34067281E-04 	 -3.30086044E-04 	+8.49245969E-06 	 -7.42185726E-06 	+1.10663704E+00 	 30.008732 
+3.33736706E-04 	 -3.29798795E-04 	+8.49175954E-06 	 -7.43191562E-06 	+1.10617887E+00 	 30.209045 
+3.33327943E-04 	 -3.29349813E-04 	+8.49256109E-06 	 -7.39963533E-06 	+1.10561919E+00 	 30.457599 
+3.32901771E-04 	 -3.28943356E-04 	+8.53991381E-06 	 -7.44145937E-06 	+1.10507201E+00 	 30.704598 
+3.32484283E-04 	 -3.28559654E-04 	+8.59854051E-06 	 -7.51768222E-06 	+1.10453656E+00 	 30.950015 
+3.32094317E-04 	 -3.28247216E-04 	+8.54645539E-06 	 -7.60365828E-06 	+1.10401304E+00 	 31.193411 
+3.31667749E-04 	 -3.27877970E-04 	+8.57389830E-06 	 -7.48268438E-06 	+1.10349940E+00 	 31.435425 
+3.31313737E-04 	 -3.27547584E-04 	+8.46631382E-06 	 -7.46690454E-06 	+1.10299502E+00 	 31.676075 
+3.31018970E-04 	 -3.27168454E-04 	+8.52101465E-06 	 -7.44226781E-06 	+1.10250010E+00 	 31.915010 
+3.30606031E-04 	 -3.26753864E-04 	+8.58698145E-06 	 -7.45162148E-06 	+1.10201463E+00 	 32.151988 
+3.30251382E-04 	 -3.26378308E-04 	+8.63061996E-06 	 -7.45302744E-06 	+1.10153686E+00 	 32.387647 
+3.29932952E-04 	 -3.26025122E-04 	+8.70855184E-06 	 -7.45011268E-06 	+1.10106652E+00 	 32.621925 
+3.29604336E-04 	 -3.25653066E-04 	+8.74425162E-06 	 -7.39571466E-06 	+1.10060405E+00 	 32.854418 
+3.29299967E-04 	 -3.25298626E-04 	+8.77802995E-06 	 -7.39047973E-06 	+1.10014726E+00 	 33.086064 
+3.28929133E-04 	 -3.24978070E-04 	+8.73006559E-06 	 -7.40093767E-06 	+1.09969787E+00 	 33.315836 
+3.28605349E-04 	 -3.24605519E-04 	+8.78044372E-06 	 -7.42446753E-06 	+1.09925419E+00 	 33.544453 
+3.28283273E-04 	 -3.24270766E-04 	+8.77764239E-06 	 -7.37229024E-06 	+1.09881696E+00 	 33.771400 
+3.27899823E-04 	 -3.23951272E-04 	+8.82399158E-06 	 -7.40707720E-06 	+1.09838530E+00 	 33.997008 
+3.27564461E-04 	 -3.23633593E-04 	+9.25767558E-06 	 -6.97317707E-06 	+1.09795840E+00 	 34.221589 
+3.27242988E-04 	 -3.23330235E-04 	+9.64411185E-06 	 -6.59660228E-06 	+1.09753684E+00 	 34.444733 
+3.26909123E-04 	 -3.22999628E-04 	+9.75250746E-06 	 -6.45823755E-06 	+1.09712012E+00 	 34.666604 
+3.26612280E-04 	 -3.22692723E-04 	+9.72717360E-06 	 -6.34340762E-06 	+1.09670804E+00 	 34.887217 
+3.26313593E-04 	 -3.22364747E-04 	+9.94206399E-06 	 -6.51374974E-06 	+1.09630092E+00 	 35.106311 
+3.25995208E-04 	 -3.22126811E-04 	+9.91219185E-06 	 -6.52158878E-06 	+1.09589778E+00 	 35.324332 
+3.25668131E-04 	 -3.21843375E-04 	+9.91892994E-06 	 -6.52943256E-06 	+1.09549829E+00 	 35.541387 
+3.25363193E-04 	 -3.21595654E-04 	+9.95412241E-06 	 -6.47392538E-06 	+1.09510282E+00 	 35.757206 
+3.25087929E-04 	 -3.21269007E-04 	+9.90455057E-06 	 -6.49313233E-06 	+1.09471077E+00 	 35.972049 
+3.24804026E-04 	 -3.20938753E-04 	+9.85486888E-06 	 -6.29131493E-06 	+1.09432368E+00 	 36.185008 
+3.24509487E-04 	 -3.20645521E-04 	+9.89107143E-06 	 -6.30820965E-06 	+1.09393992E+00 	 36.396917 
+3.24231005E-04 	 -3.20321883E-04 	+9.89651601E-06 	 -6.26206322E-06 	+1.09355784E+00 	 36.608639 
+3.23972985E-04 	 -3.20023240E-04 	+9.86846127E-06 	 -6.25572834E-06 	+1.09318066E+00 	 36.818338 
+3.23782848E-04 	 -3.19738486E-04 	+9.94658327E-06 	 -6.26004705E-06 	+1.09280627E+00 	 37.027134 
+3.23502685E-04 	 -3.19461239E-04 	+9.96307699E-06 	 -6.24949030E-06 	+1.09243466E+00 	 37.234990 
+3.23157979E-04 	 -3.19276721E-04 	+9.90324019E-06 	 -6.30509336E-06 	+1.09206641E+00 	 37.441538 
+3.22903359E-04 	 -3.18963675E-04 	+9.86835680E-06 	 -6.33425939E-06 	+1.09170062E+00 	 37.647241 
+3.22597992E-04 	 -3.18686971E-04 	+9.83637126E-06 	 -6.34079032E-06 	+1.09133720E+00 	 37.852114 
+3.22386357E-04 	 -3.18435717E-04 	+9.82531449E-06 	 -6.21912161E-06 	+1.09097735E+00 	 38.055444 
+3.22060106E-04 	 -3.18152507E-04 	+9.79645039E-06 	 -6.23379989E-06 	+1.09061888E+00 	 38.258433 
+3.21822610E-04 	 -3.17888364E-04 	+9.75542444E-06 	 -6.19448330E-06 	+1.09026348E+00 	 38.460095 
+3.21640859E-04 	 -3.17621644E-04 	+9.75934773E-06 	 -6.21338849E-06 	+1.08991156E+00 	 38.660163 
+3.21276657E-04 	 -3.17312145E-04 	+9.81797157E-06 	 -6.29332959E-06 	+1.08949121E+00 	 38.899602 
+3.20950408E-04 	 -3.17063212E-04 	+9.89438805E-06 	 -6.33465456E-06 	+1.08907398E+00 	 39.137735 
+3.20663873E-04 	 -3.16747224E-04 	+9.88152872E-06 	 -6.30369031E-06 	+1.08865982E+00 	 39.374548 
+3.20396718E-04 	 -3.16450106E-04 	+9.88605109E-06 	 -6.36100501E-06 	+1.08824918E+00 	 39.609742 
+3.20046837E-04 	 -3.16200781E-04 	+9.83516864E-06 	 -6.42425298E-06 	+1.08784184E+00 	 39.843404 
+3.19787881E-04 	 -3.15921311E-04 	+9.78991974E-06 	 -6.38594214E-06 	+1.08743695E+00 	 40.075987 
+3.19510371E-04 	 -3.15613738E-04 	+9.82370521E-06 	 -6.35084799E-06 	+1.08703477E+00 	 40.307309 
+3.19256967E-04 	 -3.15423583E-04 	+9.78831290E-06 	 -6.33405709E-06 	+1.08663518E+00 	 40.537407 
+3.19029477E-04 	 -3.15161743E-04 	+9.82601791E-06 	 -6.31253662E-06 	+1.08623820E+00 	 40.766242 
+3.18783456E-04 	 -3.14868426E-04 	+9.87900711E-06 	 -6.23229219E-06 	+1.08584309E+00 	 40.994214 
+3.18496740E-04 	 -3.14588242E-04 	+9.85619308E-06 	 -6.21570729E-06 	+1.08545097E+00 	 41.220651 
+3.18271207E-04 	 -3.14271611E-04 	+9.94004653E-06 	 -6.25723115E-06 	+1.08506015E+00 	 41.446506 
+3.18029488E-04 	 -3.14055429E-04 	+9.90324724E-06 	 -6.21580475E-06 	+1.08467197E+00 	 41.670982 
+3.17766575E-04 	 -3.13765371E-04 	+9.92938947E-06 	 -6.19720099E-06 	+1.08428553E+00 	 41.894580 
+3.17530913E-04 	 -3.13478629E-04 	+9.90042759E-06 	 -6.23691896E-06 	+1.08390177E+00 	 42.116736 
+3.17224187E-04 	 -3.13208703E-04 	+9.95222225E-06 	 -6.35356732E-06 	+1.08352020E+00 	 42.337716 
+3.16982141E-04 	 -3.12993608E-04 	+9.94749250E-06 	 -6.35255710E-06 	+1.08313960E+00 	 42.558209 
+3.16749797E-04 	 -3.12749703E-04 	+9.94798994E-06 	 -6.31142986E-06 	+1.08276171E+00 	 42.777192 
+3.16462649E-04 	 -3.12513437E-04 	+9.90424975E-06 	 -6.28961019E-06 	+1.08238582E+00 	 42.995061 
+3.16243045E-04 	 -3.12256734E-04 	+9.92595811E-06 	 -6.25018639E-06 	+1.08201050E+00 	 43.212632 
+3.15943445E-04 	 -3.12052657E-04 	+9.95874927E-06 	 -6.34139512E-06 	+1.08163733E+00 	 43.428976 
+3.15703630E-04 	 -3.11885038E-04 	+9.90888089E-06 	 -6.28428392E-06 	+1.08126625E+00 	 43.644116 
+3.15461670E-04 	 -3.11681093E-04 	+9.90876961E-06 	 -6.34139296E-06 	+1.08089571E+00 	 43.858939 
+3.15315596E-04 	 -3.11392836E-04 	+1.00300366E-05 	 -6.33063370E-06 	+1.08052798E+00 	 44.072120 
+3.15084340E-04 	 -3.11164492E-04 	+1.00445273E-05 	 -6.34371043E-06 	+1.08016014E+00 	 44.285340 
+3.14810762E-04 	 -3.10963517E-04 	+9.94919883E-06 	 -6.32118491E-06 	+1.07979451E+00 	 44.497247 
+3.14610384E-04 	 -3.10687121E-04 	+1.00200903E-05 	 -6.27362265E-06 	+1.07943033E+00 	 44.708273 
+3.14447617E-04 	 -3.10479000E-04 	+1.02365939E-05 	 -6.46025697E-06 	+1.07906777E+00 	 44.918311 
+3.14210748E-04 	 -3.10223231E-04 	+1.02734886E-05 	 -6.45150371E-06 	+1.07870535E+00 	 45.128212 
+3.14015642E-04 	 -3.10021389E-04 	+1.01223535E-05 	 -6.17276565E-06 	+1.07834486E+00 	 45.336932 
+3.13846046E-04 	 -3.09817107E-04 	+1.02569877E-05 	 -6.22012340E-06 	+1.07798604E+00 	 45.544615 
+3.13639854E-04 	 -3.09567071E-04 	+1.03196385E-05 	 -6.28196590E-06 	+1.07762719E+00 	 45.752241 
+3.13412224E-04 	 -3.09334515E-04 	+1.02577981E-05 	 -6.29342962E-06 	+1.07726994E+00 	 45.958859 
+3.13146069E-04 	 -3.09124471E-04 	+1.02554897E-05 	 -6.29483977E-06 	+1.07691421E+00 	 46.164513 
+3.12950208E-04 	 -3.08948013E-04 	+1.01519217E-05 	 -6.27483135E-06 	+1.07655904E+00 	 46.369752 
+3.12733256E-04 	 -3.08800648E-04 	+1.01212471E-05 	 -6.28015788E-06 	+1.07620509E+00 	 46.574192 
+3.12576040E-04 	 -3.08566805E-04 	+1.01570533E-05 	 -6.22636577E-06 	+1.07585114E+00 	 46.778532 
+3.12334407E-04 	 -3.08413365E-04 	+1.01162177E-05 	 -6.24888460E-06 	+1.07549957E+00 	 46.981395 
+3.12085364E-04 	 -3.08261059E-04 	+9.99976940E-06 	 -6.29573982E-06 	+1.07514883E+00 	 47.183674 
+3.11857447E-04 	 -3.08069541E-04 	+1.00859498E-05 	 -6.31002121E-06 	+1.07479830E+00 	 47.385722 
+3.11585498E-04 	 -3.07907678E-04 	+1.00260234E-05 	 -6.33908397E-06 	+1.07444932E+00 	 47.586766 
